 -52.00
 -50.00
 -48.00
 -46.00
 -44.00
 -42.00
 -40.00
 -38.00
 -36.00
 -34.00
 -32.00
 -30.00
 -28.00
 -26.00
 -24.00
 -22.00
 -20.00
 -18.00
 -16.00
 -14.00
 -12.00
 -10.00
  -8.00
  -6.00
  -4.00
  -2.00
   0.00
   2.00
   4.00
   6.00
   7.99
   9.99
  11.99
  13.99
  15.99
  17.99
  19.99
  21.99
  23.99
  25.99
  27.99
  29.98
  31.99
  33.99
  35.99
  37.99
  39.99
  41.99
  43.99
  45.98
  47.99
  49.99
  51.99
  53.98
  55.99
  57.98
  59.98
  61.99
  63.98
  65.99
  67.99
