-52.000000
-51.000000
-50.000000
-49.000000
-48.000000
-47.000000
-46.000000
-45.000000
-44.000000
-43.000000
-42.000000
-41.000000
-40.000000
-39.000000
-38.000000
-37.000000
-36.000000
-35.000000
-34.000000
-33.000000
-32.000000
-31.000000
-30.000000
-29.000000
-28.000000
-27.000000
-26.000000
-25.000000
-24.000000
-23.000000
-22.000000
-21.000000
-20.000000
-19.000000
-18.000000
-17.000000
-16.000000
-15.000000
-14.000000
-13.000000
-12.000000
-11.000000
-10.000000
-9.000000
-8.000000
-7.000000
-6.000000
-5.000000
-4.000000
-3.000000
-2.000000
-1.000000
0.000000
1.000000
2.000000
3.000000
4.000000
5.000000
6.000000
6.995000
7.990000
8.990000
9.990000
10.990000
11.990000
12.990000
13.990000
14.990000
15.990000
16.990000
17.990000
18.990000
19.990000
20.990000
21.990000
22.990000
23.990000
24.990000
25.990000
26.990000
27.990000
28.985000
29.980000
30.985000
31.990000
32.990000
33.990000
34.990000
35.990000
36.990000
37.990000
38.990000
39.990000
40.990000
41.990000
42.990000
43.990000
44.985000
45.980000
46.985000
47.990000
48.990000
49.990000
50.990000
51.990000
52.985000
53.980000
54.985000
55.990000
56.985000
57.980000
58.980000
59.980000
60.985000
61.990000
62.985000
63.980000
64.985000
65.990000
66.990000
67.990000
